time,EKF_roll [deg],EKF_pitch [deg],EKF_yaw [deg]
60.410394999999994,-3.765661661661648,-0.49,-3.570707707707706
60.421071,-3.8510907643312144,-0.4941590366242054,-3.5786136544585982
60.430707999999996,-3.9259186338523353,-0.52,-3.570986438975389
60.440569999999994,-3.9880034010202507,-0.5208892667800279,-3.58
60.450683,-4.075010469638048,-0.5320041878552192,-3.5810020939276095
60.460386,-4.124074407440776,-0.5520372037203876,-3.59
60.470614,-4.184528226610823,-0.5809056453221646,-3.59
60.481109,-4.24243527995182,-0.59,-3.5913816977724244
60.490553999999996,-4.32514474606831,-0.592572373034155,-3.6
60.500955999999995,-4.387629400618328,-0.6212715667697213,-3.6012715667697215
60.510465999999994,-4.443794933413425,-0.6315179733653699,-3.61
60.520604,-4.496342071165156,-0.6509060101664508,-3.6109060101664507
60.530645,-4.562763157894741,-0.6609210526315806,-3.62
60.540445999999996,-4.593813813813822,-0.67,-3.6215255255255285
60.550684999999994,-4.642011539992038,-0.6689942300039812,-3.6410057699960188
60.560452999999995,-4.662905675459624,-0.66,-3.6507264188649056
60.570736,-4.69899639423077,-0.66,-3.6610036057692303
60.580909999999996,-4.69,-0.658805012531332,-3.672389974937336
60.590424,-4.687806999999994,-0.650731000000002,-3.69
60.600688,-4.65701887546189,-0.6580125836412601,-3.6919874163587396
60.610454,-4.6270181383296745,-0.6414909308351628,-3.7107454654175815
60.621044999999995,-4.58607282575987,-0.6547637676798265,-3.7213090580800436
60.6307,-4.556021678040949,-0.6209945804897625,-3.7309945804897624
60.640466999999994,-4.5144442223110826,-0.6276189524190356,-3.7415873650539764
60.650565,-4.443830272952831,-0.6,-3.760881389578167
60.660452,-4.372262084212621,-0.5992965531102383,-3.770703446889762
60.670778999999996,-4.2603420763937585,-0.5878537947541687,-3.7810731026229156
60.680844,-4.1676943161277205,-0.5677626029323127,-3.7922373970676873
60.690442,-4.061706829317064,-0.5484921507849208,-3.8107539246075395
60.700692999999994,-3.946908726178599,-0.5289929789368154,-3.8210070210631844
60.710437999999996,-3.821471085896272,-0.5192246441723883,-3.831550711655223
60.72067,-3.70654973091485,-0.5080785329878357,-3.8509607335060823
60.730667,-3.5697404165409257,-0.4909326894053704,-3.861865378810741
60.740489,-3.4570581186338987,-0.49919113241461865,-3.8808088675853813
60.750716999999995,-3.2997476972367448,-0.4910252302763255,-3.89
60.760498999999996,-3.1993904020752844,-0.49918387708271417,-3.89
60.770782999999994,-3.0691862096612796,-0.49216275806774407,-3.891081379033872
60.781171,-2.9606758510531344,-0.5114864729959128,-3.901486472995913
60.790509,-2.84191213180228,-0.520808786819772,-3.9108087868197723
60.800979,-2.7348849945235103,-0.53,-3.9212595837897073
60.810482,-2.6212360229676284,-0.5314606628387286,-3.9314606628387287
60.820677999999994,-2.498076769292302,-0.5509936025589749,-3.95
60.830704,-2.380855085508552,-0.5620322032203218,-3.952032203220322
60.840529999999994,-2.290752891902713,-0.58,-3.97
60.850784,-2.1782421757824126,-0.584275572442759,-3.97106889311069
60.860481,-2.0723415757332924,-0.6207658424266708,-3.980765842426671
60.871058999999995,-1.9677613739078108,-0.6327196946871532,-3.99
60.880756999999996,-1.8790925390975244,-0.6532722382707427,-3.9910907460902476
60.890418,-1.7849910179640627,-0.6814311377245535,-4.0
60.900743,-1.7087737167964943,-0.7020411424006374,-4.001020571200319
60.910505,-1.603818984547438,-0.7223178807947108,-4.01
60.920663,-1.5223039999999886,-0.7528860000000043,-4.01
60.930600999999996,-1.4427805073698887,-0.7827073097362918,-4.01
60.940509999999996,-1.3641765349786088,-0.811663847148969,-4.01
60.950677999999996,-1.2933581718827771,-0.8337953303526988,-4.01
60.96049,-1.2257578809547547,-0.8707070198408742,-4.01
60.970687,-1.1622189912764291,-0.8838905043617854,-4.01
60.981043,-1.08188686787926,-0.92135218868679,-4.01
60.990379999999995,-1.0259176365264115,-0.932721575649059,-4.01
61.001058,-0.9621144578312875,-0.9726285140562375,-4.01
61.010489,-0.9037755610972127,-0.9923341645885453,-4.008443890274303
61.020699,-0.8241768078044808,-1.0229115960977597,-3.99
61.030789999999996,-0.7611376530307827,-1.0533233801134565,-3.988892206628848
61.040563,-0.6858100279664429,-1.0816759888134229,-3.9791620055932886
61.050855,-0.6309993967423863,-1.1056253770360087,-3.9688749245927983
61.060437,-0.5547250224572949,-1.1507535682203864,-3.958492863559227
61.071005,-0.4821931750149388,-1.1639034124925305,-3.9373977250049794
61.080830999999996,-0.4244605539445964,-1.1922157784221614,-3.9188921107889194
61.090474,-0.3754864593781141,-1.212256770310943,-3.909247743229686
61.100716,-0.3138924302788885,-1.2440717131474077,-3.897964143426296
61.110462,-0.25489532204746385,-1.28,-3.8785415205849896
61.120794,-0.18351139672656697,-1.2843257355156221,-3.8578371322421887
61.130755,-0.1214331083763042,-1.322141722905924,-3.837858277094076
61.140553999999995,-0.045162846803377094,-1.3408061921994372,-3.8183876156011256
61.150597999999995,0.015386922615473267,-1.3508978204359123,-3.7982043591281753
61.160461,0.07749111725229246,-1.3614982234504587,-3.7770035530990826
61.171121,0.18177014531047914,-1.3813077939233864,-3.737384412153227
61.180738,0.27165337851307264,-1.3931781941399288,-3.7178812039067144
61.190469,0.38059128011148696,-1.4192434799920366,-3.69773043997611
61.200751,0.5240098462775094,-1.4140028132221454,-3.666997890083391
61.210511999999994,0.6612751677851687,-1.449194630872488,-3.636778523489952
61.220659,0.8016311204565945,-1.4429077801141486,-3.5970922198858513
61.230923,0.923601152050827,-1.47,-3.5675270632634857
61.240519,1.0292900120337487,-1.470774167669479,-3.5469033293220837
61.251042,1.1505755395683406,-1.4813219424460426,-3.507356115107915
61.260535999999995,1.228933841983703,-1.49,-3.4867513301877446
61.270691,1.3370294353224172,-1.4930126151381788,-3.4469873848618215
61.280792,1.4066640127388697,-1.5211106687898117,-3.4166679936305653
61.29044,1.4642776062929244,-1.5307129343821542,-3.387148262471384
61.300892999999995,1.524543987086357,-1.5422719935431786,-3.3465920096852324
61.310527,1.5616960000000089,-1.5616960000000089,-3.3166079999999822
61.320753999999994,1.5810728542914105,-1.5810728542914105,-3.275708582834358
61.330743999999996,1.5920808442851409,-1.5931212664277112,-3.2347978892871483
61.340509999999995,1.6107703897147414,-1.62,-3.1869184411410343
61.350683,1.6209858731590043,-1.622957619477013,-3.1460565073639826
61.360504999999996,1.630824999999999,-1.650824999999999,-3.105875000000004
61.370929999999994,1.6412480031948868,-1.663744009584661,-3.055007987220452
61.380818999999995,1.6488767753550715,-1.6922464492898568,-3.0155071014202863
61.390507,1.6383811230585408,-1.711618876941459,-2.975952807646352
61.400696999999994,1.618071198712802,-1.732893201930797,-2.926142397425604
61.410523999999995,1.5974742525747472,-1.7616838316168353,-2.885790420957912
61.420784999999995,1.566700269487985,-1.783299730512015,-2.8345004491466415
61.430614,1.5372579675285631,-1.812742032471437,-2.7854299458809386
61.440475,1.5076221335991915,-1.8431704885344113,-2.736036889331986
61.450652999999996,1.4743386031618997,-1.8818871322793667,-2.685282169301583
61.460415,1.4157391130643087,-1.9028405912904607,-2.635739113064309
61.470788999999996,1.3546376811594296,-1.9432173913043422,-2.5757101449275437
61.480895,1.3029454181271978,-1.972351527290934,-2.5329454181271975
61.490463999999996,1.2446955913226188,-1.9915155453363946,-2.4769689093272107
61.500609999999995,1.1772959183673504,-2.0127040816326494,-2.4354931972789173
61.510434,1.1448821582589526,-2.041462240497442,-2.386344398756395
61.520734,1.0757861196853526,-2.061053470078662,-2.3357861196853524
61.530961,1.0350339864054443,-2.0737245101959165,-2.2925509796081665
61.540510999999995,0.9968438970661868,-2.1015780514669067,-2.2360548713327337
61.550999999999995,0.9548234349919853,-2.1225882825040077,-2.1848234349919853
61.560452999999995,0.9184515484515541,-2.1407742257742233,-2.145354645354662
61.570761,0.898926892689271,-2.152146214621458,-2.0857075707570836
61.580780999999995,0.89,-2.1710912718204436,-2.0445436408977806
61.590509,0.8891997991967885,-2.1808002008032115,-1.9959989959839426
61.600662,0.8819717187811228,-2.1919717187811227,-1.9460565624377544
61.610482999999995,0.9023155676001154,-2.21,-1.905368864799769
61.620912,0.9361284239777762,-2.211225684795555,-1.8450972608177791
61.630803,0.9884328882642787,-2.22210822206607,-1.804729444834826
61.640488999999995,1.0646668004817197,-2.2392221999197135,-1.7561109995985669
61.650718999999995,1.1252029188324697,-2.231040583766494,-1.7058376649340243
61.660576,1.1762361733931395,-2.24,-1.6646547085201662
61.670711,1.246974040292664,-2.24,-1.606014834118478
61.680916999999994,1.3161034035332668,-2.2412206807066535,-1.5626759157600798
61.690455,1.3651965982991687,-2.2507423711855954,-1.5062881440720224
61.700700999999995,1.4339767721265564,-2.26,-1.4550290348418045
61.710466999999994,1.4707706146926534,-2.260770614692653,-1.4053763118440792
61.720731,1.48,-2.27,-1.3448422633950887
61.730974999999994,1.4787172853020205,-2.2712827146979793,-1.292303711812123
61.740528,1.4684084295032584,-2.279204214751629,-1.2352252885097752
61.751084,1.4472270086155048,-2.2713864956922474,-1.1730675215387623
61.76043,1.4285096632795349,-2.279254831639767,-1.1262741581988374
61.77075,1.4069059777711006,-2.27,-1.0738119555422014
61.780857,1.3754096397565014,-2.267704819878251,-1.014262049695627
61.790535,1.3375675675675631,-2.2508108108108122,-0.9659459459459382
61.800684999999994,1.3039784086365744,-2.26,-0.9149820071971453
61.810382,1.248607809847194,-2.259303904923597,-0.8665195246179849
61.820746,1.2258105136917692,-2.25,-0.8147631421147115
61.830631999999994,1.1853618552579208,-2.25,-0.765361855257921
61.840612,1.1354872204472566,-2.2490974440894513,-0.7163897763578053
61.850773,1.0847307615029045,-2.24,-0.6747307615029043
61.860412,1.034904799682656,-2.2414557715192416,-0.6256326854422765
61.870995,0.9662794206396923,-2.258759806879897,-0.5637990343994872
61.880826,0.934424567680369,-2.25,-0.514424567680369
61.890589999999996,0.8866841046277607,-2.25,-0.46668410462776067
61.900738,0.8438073807380613,-2.247935793579354,-0.4248394839483844
61.910393,0.7879335202242578,-2.23,-0.3772446936323436
61.920660999999996,0.7532456140350873,-2.23,-0.33614035087719274
61.930769999999995,0.6868508287292878,-2.225801104972384,-0.2958011049723839
61.940512,0.65667000200119,-2.19,-0.25750250150089243
61.950778,0.6166893242702772,-2.186689324270277,-0.22558576569370306
61.960403,0.5864030561619232,-2.1585612224647694,-0.18640305616192326
61.970709,0.5380878812198986,-2.137131821829848,-0.136175762439797
61.981114999999996,0.5102834048498301,-2.107223829957094,-0.09444765991418866
61.990505999999996,0.4484688128772694,-2.087703219315904,-0.05693762575453882
62.000986999999995,0.42349650349652684,-2.056097902097916,-0.014797202797223866
62.010403999999994,0.37646384039903497,-2.025756608478842,0.02282892768075529
62.020742,0.3258959943780774,-1.9628179901616354,0.06410400562192697
62.030632,0.2861918109920879,-1.8923836219841759,0.10380818900793135
62.040521999999996,0.2466035479370083,-1.8132070958740167,0.1433964520629798
62.050711,0.20799601990049482,-1.7299800995024741,0.18300597014926184
62.060499,0.1877526395173398,-1.6332579185520193,0.212996480643528
62.070753999999994,0.1547407776670301,-1.5384297108674663,0.2531555333997791
62.080856999999995,0.10886803813347223,-1.4264164576016667,0.2845278474660861
62.090404,0.09857985798578847,-1.310769076907625,0.3228402840284177
62.100733999999996,0.08,-1.180667397151103,0.3631108676163098
62.110507,0.08077655310621638,-1.0906813627254035,0.3931062124248535
62.121027,0.08736710381419856,-0.9628861747922907,0.4339493442787054
62.130671,0.07,-0.8383214608206836,0.4629196347948115
62.140546,0.07087729816147106,-0.7203497202238184,0.4935091926458901
62.150565,0.07734203707394549,-0.6084821606537638,0.5335439505680473
62.160421,0.05071007690003248,-0.4828992309996752,0.5728403076001245
62.170628,0.058185463659141255,-0.37911278195484754,0.6127218045112993
62.180775,0.03676479423249638,-0.25598077500748434,0.6432352057674932
62.190417999999994,0.009266486540581752,-0.13193135194639927,0.6729340538376862
62.20072,0.0,-0.019653460430954374,0.7131039618706962
62.210457,-0.0014201183432013384,0.07852071005920803,0.7428402366864092
62.220760999999996,-0.01791194463945298,0.1993962491224616,0.7831320830407963
62.231023,-0.003999199359500989,0.298662930344338,0.8139991993594996
62.240454,-0.027693688303916785,0.42691893508824963,0.8430750822614208
62.250992,0.0,0.522768079800513,0.8825536159600957
62.260512,0.0,0.6185309716802234,0.9023266286400405
62.270655,0.0018594833651671317,0.7274379334606685,0.932789225047755
62.280865999999996,0.021186525389845414,0.8118652538984542,0.9635595761695193
62.290544999999995,0.030861310951237005,0.909474420463607,0.9925839328537177
62.300711,0.04202964879117219,1.0181185951646887,1.0230444731867432
62.310551999999994,0.06,1.0989055472263236,1.0532383808095807
62.320719,0.06,1.2078482034719233,1.0929430763019492
62.330645,0.06098654708520319,1.2898654708520318,1.1219730941704091
62.340565,0.07,1.3878710644677719,1.1426236881559129
62.350741,0.06790590590590168,1.4783763763763933,1.1720940940941122
62.360454999999995,0.05,1.55690032858704,1.191533406352672
62.370988,0.05,1.6513729816467937,1.213790993882248
62.380841,0.05,1.737996398919682,1.2422846854056304
62.390387,0.05206494670782834,1.804818208984933,1.261376631138542
62.400921999999994,0.08,1.8771448635633694,1.282381621187767
62.41046,0.08,1.934531125299285,1.3022655626496518
62.420711,0.08,1.9949288719695575,1.331971548787811
62.430699999999995,0.07900999000999105,2.0449500499500446,1.351980019980039
62.440535999999994,0.07,2.0916384237441044,1.370819211872056
62.450722,0.07205938218534508,2.112059382185345,1.3820593821853386
62.460452999999994,0.08848838368731204,2.1322674244690316,1.400755808156325
62.470752999999995,0.07,2.1589665561916287,1.4120668876167661
62.481161,0.068519555866759,2.154441332399723,1.4300000000000068
62.490390999999995,0.059290617848972514,2.18,1.4307093821510337
62.501072,0.05134340302091117,2.178656596979089,1.4413434030209076
62.510521,0.06,2.1707961145603814,1.4499999999999886
62.520725999999996,0.06,2.1820351229302517,1.452035122930244
62.530730999999996,0.05684115884117019,2.198947052947057,1.4700000000000273
62.540436,0.0307466108452944,2.19,1.4700000000000273
62.550695999999995,0.037071050264818425,2.19,1.4700000000000273
62.560542999999996,0.01,2.189183081691833,1.4708169183081934
62.570665999999996,0.01,2.18,1.4800000000000182
62.580819999999996,0.0077909072701782996,2.181104546364911,1.4788954536351084
62.590439999999994,-0.010734136866215601,2.19,1.4707341368662423
62.600713999999996,-0.02194711538461082,2.1880528846153893,1.4800000000000182
62.610516999999994,-0.04158691945029417,2.170793459725147,1.4784130805497209
62.620672,-0.06097729318795543,2.178045413624089,1.4599999999999795
62.630668,-0.07194461048017788,2.1590276947599114,1.4590276947598915
62.640491999999995,-0.0922898928177744,2.14847340478815,1.4492367023940644
62.650737,-0.12204248528971962,2.1269362720654206,1.4399999999999977
62.660494,-0.14151481667503918,2.0962129583124023,1.439242591662479
62.670969,-0.16254825482548685,2.044903490349026,1.4287258725872645
62.68082,-0.18335618479880653,2.0044063586686556,1.418881271733748
62.690543,-0.21,1.9552580645161113,1.4092096774193732
62.700720999999994,-0.21518407960198133,1.8937791044776224,1.3979263681591867
62.710465,-0.2622150882825141,1.8348314606741338,1.3792616372391582
62.7206,-0.2918009573195076,1.7627961707219695,1.3690995213402515
62.731061999999994,-0.3140041928721139,1.6806568832984008,1.3559958071278957
62.740612,-0.3408728805056681,1.6121440754489873,1.3291271194943168
62.750957,-0.3524932574168496,1.5187803416241767,1.317506742583146
62.760484999999996,-0.37076776395022176,1.433090124448004,1.2984644720995648
62.770663,-0.38097919583916917,1.3402080416083082,1.2780416083216362
62.780806,-0.39223748382602636,1.2376938389568553,1.2566437742609544
62.790487,-0.41151736562907454,1.1339305374837017,1.2292413171854817
62.800743,-0.4330586007574149,1.0477655969703403,1.2179609328284133
62.810494,-0.4607434197307619,0.9318223829616193,1.197769740807705
62.820741999999996,-0.472070484581492,0.8175770925110479,1.1679295154185199
62.830796,-0.4921881838074425,0.7001531728665087,1.148905908096257
62.840467,-0.5128786510087392,0.6113640469737825,1.1378410117434339
62.850679,-0.5528939484721536,0.49035350509282166,1.1071060515278572
62.860510999999995,-0.5815754044006756,0.3921229779966219,1.07842459559931
62.871007999999996,-0.6039744612928991,0.2854269752593698,1.0560255387070991
62.880779,-0.635345067621322,0.18037887828162028,1.025723945902919
62.890519,-0.6815221096961838,0.09315050636717333,0.9892389451519179
62.900724999999994,-0.7059789050728081,0.0010316423907877348,0.9760140632848107
62.910531,-0.7633666134185433,-0.0884165335463582,0.9374750399360926
62.920803,-0.8044070175438719,-0.18991578947371165,0.9077964912280848
62.930696,-0.8450768769967919,-0.27913837859422547,0.8869538738019139
62.940487,-0.8947543771885781,-0.36633916958477075,0.8576228114057223
62.950686999999995,-0.9559802059382088,-0.44797360791761176,0.828006598020583
62.960500999999994,-1.0148601503759334,-0.5256701754385888,0.8067598997493785
62.970701999999996,-1.0761909989022866,-0.5972228320526677,0.7669045005488413
62.98103,-1.1367049999999836,-0.6680459999999805,0.7346360000000194
62.990469999999995,-1.1831196325144657,-0.7238995406430823,0.6976602756141415
63.001011999999996,-1.227865011015418,-0.7765541758461817,0.6647566593230679
63.010441,-1.2837569944045049,-0.8230055955236039,0.62699440447639
63.020661999999994,-1.3348124875324179,-0.8648124875324179,0.5871125074805269
63.030746,-1.3830742261845248,-0.9120494841230166,0.555901031753967
63.040482,-1.4123286986095889,-0.9346573972191778,0.5176713013903951
63.050608999999994,-1.4427218105347488,-0.9927218105347488,0.48637091928700876
63.060492999999994,-1.4732208312468507,-1.0232208312468507,0.44677916875314083
63.070707999999996,-1.5120618145563252,-1.0641236291126503,0.4069072781655343
63.080690999999995,-1.5349384569198214,-1.1039507655358574,0.37604923446413624
63.090512999999994,-1.5808154291995606,-1.1424462875986816,0.33755371240129556
63.100804,-1.5932950574138813,-1.174393409885175,0.30560659011482505
63.110529,-1.62,-1.2140548658390133,0.26675610732877403
63.12095,-1.6237230431309975,-1.2624820287539982,0.22627695686901722
63.13082,-1.6521800476947563,-1.2843600953895131,0.1956399046104796
63.140518,-1.6714705290686012,-1.3229410581372023,0.15779420639712108
63.1507,-1.692931468249976,-1.3629314682499762,0.12706853175002192
63.160419999999995,-1.7215046896826993,-1.3930093793653986,0.09623827579327353
63.170707,-1.74,-1.4350615934830435,0.047975362606789994
63.180873,-1.7422503770739115,-1.4833755656108674,0.02549924585215257
63.19056,-1.7625886951292866,-1.5134515935057156,-0.012588695129286617
63.200686999999995,-1.79,-1.5540283178781555,-0.04302123840861665
63.210412,-1.7935413322632472,-1.591416532905299,-0.07283306581059767
63.220710999999994,-1.8410360675392117,-1.6120721350784235,-0.11414427015684674
63.230914999999996,-1.8512288051067238,-1.6336864153201711,-0.15614402553361886
63.240474,-1.86,-1.6623032918506668,-0.20230329185066692
63.251092,-1.8642527472527637,-1.6914175824175879,-0.23567032967035142
63.260506,-1.89,-1.7024680127948935,-0.2724680127948936
63.270598,-1.8909112733820168,-1.7318225467640336,-0.30273382014605055
63.280801,-1.9022226644115017,-1.751111332205751,-0.3344453288230036
63.290509,-1.919223359422035,-1.760776640577965,-0.37232992173389506
63.300692999999995,-1.9109945859233974,-1.7719891718467948,-0.40298375777019224
63.310477,-1.92,-1.79,-0.4331961741556259
63.320726,-1.921017153174847,-1.79,-0.4730514595245415
63.330690999999995,-1.9279808076769278,-1.791009596161536,-0.5050479808076801
63.340519,-1.9083331667832426,-1.8,-0.552500249825136
