time,Vicon_Rx [deg],Vicon_Ry [deg],Vicon_Rz [deg]
58.399581999999995,1.6363353829866814,0.10075327609335777,-2.958574151037479
58.409251,1.628060033230468,0.09541828271639985,-2.947127411130279
58.419536,1.5698285219646455,0.08465793478860795,-2.956475200369116
58.428957,1.5372519751984999,0.1011569821558066,-2.9684229574906773
58.439031,1.5277680569171255,0.10554004053362387,-2.9623115031689116
58.449298999999996,1.5239825706013208,0.10852040655571171,-2.9470800160614656
58.459525,1.4633998468090879,0.0968932479683976,-2.9461308198005884
58.469203,1.4093019968520866,0.07098488715433837,-2.962542450996982
58.478978999999995,1.3397709557254371,0.03159170107130127,-2.954844465081341
58.489008,1.2636970631642774,0.023392577620151234,-2.9270657637591544
58.499295999999994,1.2075065937225389,0.04122317317365498,-2.8956206252918557
58.509591,1.1573526299933505,0.04311899311491307,-2.8894961992056176
58.519292,1.1083990243041195,0.03926665981314725,-2.8914442728977985
58.529016,1.0472544065318137,0.04357608165513782,-2.8986761805654107
58.539004999999996,0.9695110983022203,0.04316407343423423,-2.9021624167543925
58.549371,0.8937923421712115,0.04831565156181705,-2.891499580513755
58.559712,0.857563922847059,0.04994399188599852,-2.8749206857482337
58.569233999999994,0.8242576799513227,0.05664754079324641,-2.8755047417358615
58.578902,0.7863856796255908,0.05197365476820204,-2.8759759479561557
58.588963,0.7390807198847963,0.05290600606990892,-2.8836699976517437
58.599574,0.7014386303335475,0.058902742781932194,-2.8857978253929844
58.609232,0.6624954281140433,0.061894459097941334,-2.880359900148127
58.619564,0.6049996347642822,0.061855795905923716,-2.8587905830940636
58.628963999999996,0.5511714244752175,0.06559906669138527,-2.842657392197374
58.639081,0.510814861425851,0.04912980167037351,-2.838923907531057
58.649257,0.48634007539269153,0.04008150320064918,-2.8314650512807953
58.659318999999996,0.46342268031993306,0.056463226000135536,-2.8376779878872345
58.669236,0.4499623146192142,0.05557033430177816,-2.828678683038558
58.678951,0.42382724013520506,0.047290630066324946,-2.820909942564806
58.689025,0.39068564239143927,0.03162509305159289,-2.815760954206458
58.699214999999995,0.34864658304711205,0.02433702406091187,-2.8114278348300674
58.709233999999995,0.30357984855553316,0.036009045243579174,-2.8033918553815047
58.719361,0.2599929609163836,0.03723272266579236,-2.8015213372564762
58.72913,0.21478752480176777,0.02673453730674491,-2.793869537468704
58.739076999999995,0.18374544495461037,0.0054798944033440655,-2.7846673482647786
58.749230999999995,0.16331827342851207,0.010101406356341491,-2.769064045925756
58.759305999999995,0.1564737826332427,0.029683178655717013,-2.751649795883674
58.769236,0.1599505650186115,0.033084450933266396,-2.7430080052400045
58.779058,0.14407135485333417,0.006403634149370618,-2.738647446914804
58.789086999999995,0.11639396965809322,-0.01139851404957648,-2.732983174692989
58.799304,0.08769870775103518,-0.016677443506284972,-2.720476777991582
58.809532999999995,0.06307371510229774,-0.011162994018312888,-2.7055845735721045
58.819328,0.03657676620445799,-0.014281546001431056,-2.68487163361611
58.828998999999996,-0.019361939852537154,-0.03048547999708262,-2.6726808106091138
58.839062999999996,-0.06036866675993066,-0.04010544137733174,-2.6554422294270097
58.849236999999995,-0.058237756505743504,-0.02813697183146413,-2.652416393474301
58.85935,-0.06344728358473042,-0.019903012546370058,-2.654694301780405
58.869536999999994,-0.05370448005320415,-0.009978346481102407,-2.6666423052738235
58.879031999999995,-0.04880631542883011,0.006315415837675031,-2.6684903978307535
58.889061999999996,-0.0472927270918551,0.013380208905178437,-2.6586857435052424
58.899578999999996,-0.05020375376157625,0.01320099343643788,-2.6387479581502866
58.909341999999995,-0.06901802617606657,0.02438840691597932,-2.635610263647232
58.919183,-0.0949126360030513,0.03362379902413726,-2.6369934467900356
58.929097999999996,-0.10936435046962527,0.029988467757699255,-2.638704699836752
58.939094,-0.11895674685035047,0.038689542344426675,-2.6298661841341273
58.949245999999995,-0.11802125001034991,0.0547497097701265,-2.6206985156373577
58.959379,-0.09742849368144851,0.06196268118260906,-2.603271878247729
58.969333,-0.0948040032050855,0.05944591823086909,-2.5911160858803326
58.979001,-0.07501279191327141,0.06389971397807248,-2.586878787965601
58.989069,-0.05709446506217347,0.04984083083497304,-2.5762100158822037
58.999272,-0.051274967114506693,0.05644823169464108,-2.558788672622609
59.009223,-0.05405558859005947,0.05955311863433932,-2.54529544779235
59.019268,-0.05316767589494398,0.06083264798242516,-2.557525547056211
59.02905,-0.0384823035099186,0.05610743066851043,-2.5762813548572936
59.039162,0.0004243898388549133,0.08385301503012765,-2.57522661404096
59.049163,0.05916889313694883,0.12764307923302715,-2.567673689579893
59.059425999999995,0.10190421079390928,0.13663035196798234,-2.56569677319231
59.069340999999994,0.13705182545164413,0.1184558384979651,-2.5561675969747064
59.079007,0.17543172421486164,0.11610524476596484,-2.537843237852516
59.089147999999994,0.1964369471308854,0.11683282668126754,-2.500579415037607
59.099553,0.20949657469054023,0.13120045959142806,-2.486300504642024
59.109538,0.22228112521274684,0.12781456550108644,-2.512964298849843
59.119578999999995,0.250472167071325,0.11701132022318594,-2.528557127520336
59.129064,0.2966718281999717,0.13583155139875652,-2.5258029709653425
59.13919,0.3424060986299194,0.16808553438545898,-2.5236865164363316
59.149210999999994,0.3900759923791102,0.20502043358930977,-2.5104072913425517
59.15931,0.4265213220653872,0.19196893057120445,-2.4896029703478026
59.169363999999995,0.47003059111202816,0.18935883279464666,-2.462571222643988
59.179207999999996,0.49950956187997364,0.20035357202683923,-2.476456860538561
59.189042,0.538473992185792,0.21764283705550758,-2.4929358887604023
59.199368,0.567554831770643,0.2338963834666425,-2.4870067610681934
59.209255999999996,0.6085107545103352,0.24902894941075682,-2.482259576552421
59.21937,0.6567254509086355,0.26167557753251114,-2.487315419162014
59.229082,0.7208840959734958,0.281379051797159,-2.491982521366767
59.239048999999994,0.7863146385885847,0.3081634249729231,-2.4728794954122613
59.249224999999996,0.8239622399938406,0.31237314069939837,-2.4475009372121965
59.259322999999995,0.898031588142474,0.3141715520859104,-2.4466709620093354
59.269396,0.9915518794076309,0.3461735425047454,-2.4568753919068236
59.279005999999995,1.0790018146135776,0.38995535038579165,-2.4542427826184827
59.289016,1.1451012969136258,0.41760810412542504,-2.4483541343945134
59.299231999999996,1.2027260802518331,0.43573004298817075,-2.43505954830224
59.309560999999995,1.2811658186814603,0.4753569786629026,-2.4450577191230556
59.319285,1.362741074374523,0.4906782253385323,-2.443329758627029
59.329035999999995,1.4171883598316135,0.4709509274887692,-2.437140760197275
59.339023,1.4835825372440612,0.4823581562264115,-2.442340776176856
59.349529,1.567215284379443,0.5092454268926132,-2.460628592050875
59.359488,1.6289199569373394,0.5427738914692324,-2.4635874549669046
59.369533,1.6854226769182523,0.5661585622717884,-2.4337442893060457
59.379135999999995,1.7247578739428517,0.5445705438752839,-2.4124246042337436
59.388998,1.743105174295163,0.5179146564850542,-2.4250120687335945
59.399252999999995,1.7278943193979106,0.5299355402100363,-2.428268187883308
59.40929,1.7361235517811922,0.5697730321449139,-2.4219003406777997
59.419346,1.7416901060510495,0.620415476771917,-2.419758229098724
59.429067999999994,1.7341996339896557,0.6539418844300023,-2.404607437367151
59.439066,1.707207408914544,0.6403528553268241,-2.38264185124281
59.449267,1.708411909439361,0.6169171339846885,-2.3989581537212556
59.459396999999996,1.7349963146150564,0.6253989261640777,-2.4167944903118563
59.469305999999996,1.7389157928408225,0.6429672789347388,-2.4170838569167037
59.479101,1.7248881129792517,0.6897312003591798,-2.41082789117985
59.488980999999995,1.7177563697933933,0.7324559182969368,-2.4062316581247805
59.499275999999995,1.7046732395049888,0.7186009737514346,-2.39753726995552
59.509527999999996,1.698463912532666,0.7207880682470147,-2.400536314401732
59.519405,1.7148320390436784,0.7481112337446023,-2.4120115417705073
59.529021,1.7270654213557,0.7576575815073234,-2.4202525427069013
59.539165999999994,1.7374645022049098,0.7607190439757281,-2.414146944013801
59.54931,1.6965952106838351,0.7884584862297856,-2.4017459085213417
59.559774,1.6650659963896741,0.8252777109844149,-2.398846014421583
59.569306999999995,1.6673267560689755,0.8401749517028984,-2.394561779804273
59.578967,1.6654185086731377,0.8432043399939427,-2.3816816885697287
59.58896,1.6600635247987054,0.849775782022374,-2.371616750977047
59.599135,1.661830074002235,0.8466397490969215,-2.3828268020190846
59.609162999999995,1.6509148613119975,0.8388521525821254,-2.3808860106204754
59.619279,1.6413828145758382,0.8746048794264887,-2.3781663633134835
59.629113999999994,1.6139755904401427,0.9124514175077685,-2.3726488542308886
59.638921999999994,1.5866885785794358,0.9311760334864796,-2.3465408520026907
59.649553999999995,1.5559888868514953,0.9484155084827356,-2.32845228793152
59.659464,1.5384622110308335,0.9427835167030936,-2.319654899139425
59.669579,1.508091104868803,0.9453168324055361,-2.3131441562598134
59.678978,1.5134631456968137,0.951505280795809,-2.3006906836699477
59.688935,1.5230962278105697,0.9716967489441506,-2.280717082723207
59.699372,1.4890165892941947,1.0143145472277735,-2.268217716213959
59.709182,1.4565152375090233,1.0727551136042872,-2.2541090086610014
59.71942,1.407460275585846,1.1409593620943332,-2.2281701894105552
59.729037999999996,1.3388197082756468,1.1813685283988455,-2.191006479511193
59.738965,1.2611954205687381,1.2227177637466087,-2.160283336620669
59.749306,1.1780274453376338,1.276613073123059,-2.1448688983596718
59.759454999999996,1.1261304408633095,1.3378477655902947,-2.132341617346646
59.769417,1.0783424834307969,1.4208030703470333,-2.103956153719424
59.779104,1.0493298773897657,1.512049148883822,-2.081935070903052
59.789094999999996,1.007756535330058,1.5886554338281358,-2.0411432146280104
59.799357,0.9482807201614066,1.6827159097025306,-2.014860208170857
59.809447999999996,0.8968093545738991,1.8024415716435076,-1.9983608227585734
59.819236,0.8360640368186303,1.8876276875755233,-1.9676202963285732
59.828984999999996,0.7620910028753355,1.9640751085120294,-1.9233859606513473
59.838966,0.7130179698632656,2.046191494194736,-1.9055294903238098
59.849585,0.6792721766653965,2.1470308801151354,-1.8692986072811035
59.859683999999994,0.6541819766644785,2.262048456180286,-1.8355022792057059
59.869505,0.6079947143425511,2.3640077740549,-1.8081410234739181
59.879025999999996,0.5295512173097849,2.4442945278807975,-1.791793363015356
59.889106,0.44512192705886,2.5307856411349707,-1.757663086489041
59.899293,0.40654191705616705,2.64691260673094,-1.7172009788842482
59.909259999999996,0.3853651505762894,2.7720629528621092,-1.6952858130458985
59.91927,0.36357078142986765,2.8727376134164264,-1.6626520965508946
59.928990999999996,0.34985912216979603,2.9775889873281405,-1.6389894552740236
59.939122999999995,0.3192864609146076,3.0770029172796,-1.6147032411103843
59.949236,0.2620814894824434,3.1567934151704464,-1.5930420502738565
59.959393,0.22118795038749195,3.215567030454087,-1.5765777126898939
59.969179999999994,0.2175813414953488,3.303440719515708,-1.537287303776156
59.979237,0.20151377145493254,3.3570669908299076,-1.4852128886500797
59.989044,0.1888438354100639,3.40917072993594,-1.445465958424305
59.999314,0.16752864805644402,3.470967075741049,-1.4273205340215525
60.009240999999996,0.12350199239123381,3.5169703670444994,-1.4219503266585158
60.019261,0.08372054718787157,3.52046861815845,-1.4090166065743432
60.028945,0.06040572567010087,3.544136416055515,-1.388130358344468
60.039038999999995,0.06019950670049294,3.597000939981026,-1.3395147289994604
60.049305,0.053637581501042184,3.615978711631945,-1.2881859840662875
60.059659999999994,0.02805337728915773,3.618270697511072,-1.262105856234831
60.069191999999994,-0.004900135599171809,3.6261484432053486,-1.271327021800927
60.078986,-0.06645849192494652,3.5811450950346395,-1.2644656573985869
60.088981,-0.08982588232040593,3.5902481969174977,-1.2288290805584667
60.099607999999996,-0.11043265892654484,3.602986337858295,-1.157435307803185
60.109246999999996,-0.12726563755589723,3.5720756486926875,-1.124903394449239
60.119533999999994,-0.10943122037389927,3.565934744340274,-1.1399654522071003
60.128944999999995,-0.15447960875686845,3.533248017790075,-1.0975872648734029
60.139021,-0.18579701201334586,3.542069997930744,-1.0591418884933466
60.149240999999996,-0.21920831245040173,3.4992051115979597,-1.0428421330360618
60.159318999999996,-0.2689840209023979,3.4423858037873014,-0.9915940834787618
60.169304,-0.27772331177405657,3.4203391040279114,-0.934443732113226
60.179114999999996,-0.2942366086016089,3.4157352449045923,-0.9024275495298502
60.189085999999996,-0.2606013045849537,3.374598932132686,-0.9118604860266042
60.199335999999995,-0.300895100107858,3.3540878280191784,-0.8527048110260094
60.209233,-0.3204251572366535,3.342611769861601,-0.833611250334281
60.219276,-0.37083957039077875,3.239539206450138,-0.7999701880917722
60.228933999999995,-0.37597976957652696,3.2324773068195443,-0.7731669244975135
60.238980999999995,-0.3936438578651853,3.2092571952253,-0.730966594722571
60.249199999999995,-0.40098645524923365,3.1799381427075377,-0.6719988899858185
60.259356999999994,-0.41846468748829924,3.144926892005042,-0.6586979154141495
60.269248,-0.41040216290508946,3.0422667493440945,-0.6298583770047057
60.279039,-0.4328920512486066,3.012469557816743,-0.5761111714887028
60.289057,-0.44532829499756177,2.9632950196017105,-0.5649793005378461
60.299271999999995,-0.4693924822860052,2.9396985205727093,-0.5107659021822823
60.309532,-0.5026784997716119,2.8469667968505963,-0.4926184323201763
60.319233,-0.532594178971002,2.761064076874635,-0.4556200493926017
60.329015,-0.5568486741911103,2.6887046754289043,-0.4196756337883074
60.339039,-0.5499383448155885,2.6018983379845886,-0.36408034717452775
60.349365,-0.5262407645723454,2.5714378274882437,-0.33226757606756574
60.359359999999995,-0.5252230196408693,2.45117639271298,-0.2899404392734102
60.369226999999995,-0.508263205344411,2.360622464381518,-0.2744630558690464
60.379023,-0.5018797450389859,2.2338789059685196,-0.2386396718693956
60.389095,-0.4841415675778334,2.166869475016532,-0.19782726932779593
60.399704,-0.46569036705896666,2.028976759515993,-0.1489752318669212
60.409194,-0.4852991657775574,1.9845572553385624,-0.1257067855530889
60.419543,-0.4880029364240364,1.8677301123985894,-0.07472549941561801
60.429021999999996,-0.518111925853936,1.7751104649508784,-0.04505126463110598
60.43913,-0.5128381702061244,1.6724561836481762,0.006028129069628463
60.449244,-0.538921260229406,1.5530751042547062,0.04961656942441606
60.459376999999996,-0.5227895189159127,1.4787726940637675,0.11263529776711845
60.469159,-0.5650313365648051,1.3917526891985412,0.16067856519310664
60.479032999999994,-0.5625520794303361,1.300563660069454,0.2119504956312887
60.489016,-0.5996963202238503,1.179524446546412,0.23993222454818774
60.499249999999996,-0.5895301352591595,1.108392738957105,0.30131744448740977
60.509467,-0.6104545367486238,0.996128792325744,0.3504797958901251
60.519194999999996,-0.5949527281534205,0.9633453390406226,0.3970900041972504
60.529036,-0.5858180906735385,0.8786704103237599,0.44697585232621695
60.539055999999995,-0.5812406850116194,0.7935536050962425,0.48449453249794916
60.549239,-0.5591258147337539,0.7190333849993976,0.5329900011342142
60.559391999999995,-0.5519584564913534,0.6307639196111713,0.5867016718077334
60.569137,-0.5144406987816419,0.58128971301015,0.6361817053895362
60.579049,-0.5249251388831809,0.5059693344341321,0.6970638913029338
60.589037,-0.4949558709411872,0.4763440130565645,0.7390881568770082
60.599531999999996,-0.5037871387277165,0.3903168867544774,0.8137959232489038
60.609704,-0.4570512865056277,0.3815393795979086,0.8472235415239878
60.619642999999996,-0.46302117441542023,0.27543387555710724,0.9422029672171883
60.62905,-0.43517309936339627,0.2921772951535239,0.9684778491327957
60.639064,-0.44289984776037233,0.2207335948559298,1.058730665224705
60.649198999999996,-0.40860182638039116,0.23170071752244414,1.0790872598095422
60.659298,-0.4236268882534142,0.17042981985207223,1.1676335841340126
60.669301999999995,-0.39709681666542324,0.14953369382984744,1.2069679217218847
60.679081,-0.41444007150711826,0.08683025270266109,1.2688109922351667
60.689028,-0.38264126911117785,0.08671286510959075,1.3211833797921848
60.699245999999995,-0.37306085900754443,0.0464795452819573,1.3649508293508763
60.709323,-0.3759102755255574,0.030291132712970015,1.4301796621742353
60.719403,-0.3953466082182253,-0.05026558736685227,1.4791077368640873
60.729029999999995,-0.43240717425530395,-0.08052416461788103,1.526240505598679
60.739025999999996,-0.42754424080575754,-0.13033069246968398,1.5921450390089773
60.749216999999994,-0.43042457412639706,-0.1354665314466218,1.618102588249741
60.759322999999995,-0.44284205923714637,-0.22281068145487248,1.6705125389197688
60.769200999999995,-0.4332823500986367,-0.24128678271953308,1.6984665309497908
60.779139,-0.446096322003633,-0.2831047720282345,1.7552630808768666
60.789097999999996,-0.47063581216059414,-0.31291287840156345,1.7986189691217005
60.799319,-0.4818239762148522,-0.3075620255528395,1.8630628669544447
60.809552999999994,-0.5055269651796719,-0.3373538255473604,1.9192143809957087
60.819424,-0.5700262393832994,-0.3474584519265078,1.9541030817554177
60.829063,-0.6237849957284416,-0.4061481231635896,1.9995215206599566
60.83898,-0.6106123980803164,-0.3952543161765699,2.0228465981222694
60.849591999999994,-0.591689189200246,-0.4016478605391983,2.0662800877709264
60.859387,-0.6051945550062046,-0.40605459353311024,2.103789044848929
60.869538999999996,-0.6175553631318514,-0.4162448541843159,2.1424873018813946
60.879101,-0.6402438386471557,-0.4238984129525204,2.209075792200485
60.889036,-0.6931007365044608,-0.402943730643588,2.230569496014303
60.899255,-0.7005508207708493,-0.41605103402137866,2.2838503138850452
60.909279,-0.6926155615730915,-0.4247114286046537,2.319145155777842
60.919309999999996,-0.6984558235112671,-0.400784579299689,2.343694575293407
60.929021,-0.7454135765577816,-0.3947352737099701,2.417415152573014
60.938990999999994,-0.7694407450430766,-0.3557242619354406,2.4270539871830232
60.949281,-0.776193728748898,-0.3387584201229622,2.4710171992316163
60.959426,-0.7775804527708738,-0.33493334242351624,2.513574126479094
60.969300999999994,-0.8191747880041976,-0.277616031156511,2.5570364530935397
60.979091,-0.8686173100391807,-0.26736484217335255,2.5881567932459553
60.989016,-0.9013144701508393,-0.2468481058847094,2.608551529631276
60.99924,-0.8811990048539882,-0.22772311845791748,2.640058255331997
61.009352,-0.8963566147833613,-0.2132224733956387,2.6653402529548216
61.019352999999995,-0.9389208357835556,-0.21335487248294283,2.7104768310016123
61.02919,-0.9111381008384782,-0.16254107336811607,2.722423894844253
61.039018999999996,-0.8921347981882456,-0.1434554309531596,2.7549772597380473
61.049147,-0.9251736531401806,-0.17979653961648812,2.783298426041501
61.059635,-0.9480271519596328,-0.14742139897440487,2.802929335201398
61.069362,-0.9131117742849698,-0.12353293211217053,2.816912129549281
61.079063,-0.8909708000499665,-0.13189041536831436,2.840608323234653
61.088972,-0.9486372775269438,-0.1709681881851557,2.857353123659335
61.099267,-0.931305309953779,-0.15197471749063418,2.8621651956454075
61.109337999999994,-0.8780302044722458,-0.1373236309000868,2.8781112470670545
61.119358999999996,-0.8959601165299679,-0.1934859910324246,2.89700863846888
61.12896,-0.9013400813642661,-0.21553721715840335,2.878157656648443
61.139036,-0.8404930636003027,-0.2069462937077744,2.8679662844591203
61.149550999999995,-0.887396116366138,-0.18415810061782545,2.8963656881494906
